Phase Current vs Output Power 
Output Power (W)
Phase Current (A)
1.98638	0.150572
4.36291	0.150805
6.59144	0.151249
8.6805	0.151884
10.6381	0.152691
12.4719	0.153654
14.189	0.154756
15.7962	0.155982
19.3737	0.159497
22.392	0.163504
24.928	0.167847
27.0478	0.172403
28.8084	0.177077
30.2586	0.181797
31.4406	0.186510
32.3907	0.191176
33.1402	0.195767
33.7162	0.200262
34.4381	0.208912
34.7085	0.217065
Phase Current
