Efficiency vs Output Power 
utput Power (W)
Efficiency (%)
1.98638	2.763898
4.36291	5.867365
6.59144	8.581378
8.6805	10.956863
10.6381	13.037157
12.4719	14.859302
14.189	16.455075
15.7962	17.851843
19.3737	20.620679
22.392	22.577553
24.928	23.930756
27.0478	24.830987
28.8084	25.388841
30.2586	25.686509
31.4406	25.785742
32.3907	25.733388
33.1402	25.565288
33.7162	25.309063
34.4381	24.613216
34.7085	23.766927
Efficiency
