Power Factor vs Output Power 
utput Power (W)
Power Factor
1.98638	0.624286
4.36291	0.648407
6.59144	0.671137
8.6805	0.692474
10.6381	0.712437
12.4719	0.731060
14.189	0.748389
15.7962	0.764482
19.3737	0.799720
22.392	0.828677
24.928	0.852397
27.0478	0.871827
28.8084	0.887777
30.2586	0.900920
31.4406	0.911801
32.3907	0.920859
33.1402	0.928442
33.7162	0.934827
34.4381	0.944842
34.7085	0.952186
Power Factor
