Slip vs Output Power 
Output Power (W)
Slip
1.98638	0.016000
4.36291	0.018000
6.59144	0.020000
8.6805	0.022000
10.6381	0.024000
12.4719	0.026000
14.189	0.028000
15.7962	0.030000
19.3737	0.035000
22.392	0.040000
24.928	0.045000
27.0478	0.050000
28.8084	0.055000
30.2586	0.060000
31.4406	0.065000
32.3907	0.070000
33.1402	0.075000
33.7162	0.080000
34.4381	0.090000
34.7085	0.100000
Slip
